Time (ms)	Ch1 V	Ch2 V	Ch3 V	Ch1 A	Ch2 A	Ch3 A
0.000	0.012	0.000	0.000	0.270	-0.000	0.033
0.005	0.049	0.000	0.006	0.278	-0.000	0.025
0.009	0.079	0.000	0.000	0.287	0.008	0.025
0.014	0.110	0.000	0.006	0.278	0.008	0.041
0.018	0.134	0.000	-0.006	0.278	0.016	0.041
0.023	0.170	0.000	-0.006	0.278	0.025	0.033
0.027	0.207	0.000	0.000	0.287	0.008	0.041
0.032	0.225	-0.006	0.006	0.287	0.008	0.033
0.036	0.262	0.000	-0.006	0.278	0.016	0.041
0.041	0.292	0.000	0.006	0.270	0.016	0.033
0.045	0.323	0.000	-0.006	0.287	0.008	0.041
0.050	0.353	-0.006	-0.006	0.278	0.016	0.033
0.055	0.396	0.000	0.006	0.278	-0.000	0.033
0.059	0.420	0.000	-0.006	0.270	0.016	0.033
0.064	0.444	0.000	-0.006	0.270	-0.000	0.041
0.068	0.481	0.006	0.000	0.270	0.016	0.033
0.073	0.518	0.006	0.000	0.270	0.008	0.025
0.077	0.530	0.000	0.000	0.278	0.008	0.025
0.082	0.560	0.006	-0.006	0.270	0.016	0.025
0.086	0.603	0.006	0.000	0.278	0.008	0.016
0.091	0.627	0.000	0.000	0.262	0.008	0.025
0.096	0.651	-0.006	0.000	0.278	-0.000	0.041
0.100	0.694	0.006	0.006	0.270	0.016	0.033
0.105	0.718	0.006	-0.006	0.278	0.008	0.025
0.109	0.749	0.006	0.000	0.278	0.016	0.041
0.114	0.779	0.000	0.000	0.270	0.025	0.033
0.118	0.816	0.006	0.006	0.270	0.016	0.041
0.123	0.840	0.000	-0.006	0.278	0.016	0.025
0.127	0.883	-0.006	-0.006	0.287	0.008	0.033
0.132	0.901	0.006	0.000	0.270	0.016	0.033
0.136	0.932	-0.006	0.000	0.278	-0.000	0.033
0.141	0.974	0.000	0.000	0.278	0.025	0.025
0.146	1.005	0.000	0.006	0.287	-0.000	0.033
0.150	1.035	0.000	0.000	0.295	0.016	0.049
0.155	1.072	-0.012	0.000	0.287	0.008	0.033
0.159	1.096	0.000	0.000	0.295	0.016	0.049
0.164	1.126	0.000	0.000	0.295	0.016	0.033
0.168	1.163	0.000	0.000	0.303	0.008	0.025
0.173	1.199	0.000	0.000	0.295	0.016	0.041
0.177	1.224	0.000	-0.006	0.295	-0.000	0.041
0.182	1.260	0.006	0.006	0.287	0.008	0.025
0.187	1.297	0.000	0.000	0.303	0.016	0.033
0.191	1.321	0.000	0.000	0.295	0.025	0.033
0.196	1.358	0.000	0.006	0.287	0.008	0.041
0.200	1.394	0.018	-0.006	0.295	0.016	0.033
0.205	1.419	0.000	0.006	0.303	0.008	0.033
0.209	1.455	0.006	0.006	0.295	0.008	0.041
0.214	1.498	-0.006	0.000	0.295	0.008	0.033
0.218	1.522	-0.006	0.000	0.295	0.016	0.041
0.223	1.559	0.000	0.006	0.303	0.016	0.033
0.227	1.589	0.000	0.000	0.295	0.016	0.033
0.232	1.626	0.000	0.006	0.303	0.016	0.041
0.237	1.662	0.000	0.000	0.311	0.016	0.033
0.241	1.699	0.006	0.000	0.311	0.016	0.025
0.246	1.723	-0.006	0.006	0.303	0.016	0.025
0.250	1.753	-0.006	0.000	0.303	0.008	0.025
0.255	1.802	-0.006	0.000	0.311	0.016	0.041
0.259	1.826	-0.006	0.000	0.303	0.008	0.033
0.264	1.857	-0.006	0.000	0.303	0.016	0.041
0.268	1.887	-0.006	0.000	0.303	0.016	0.025
0.273	1.930	0.006	0.000	0.311	0.016	0.025
0.278	1.960	0.006	0.006	0.311	0.008	0.033
0.282	2.003	0.000	0.000	0.311	-0.000	0.025
0.287	2.033	0.000	0.006	0.319	0.008	0.033
0.291	2.070	0.000	0.006	0.311	0.008	0.049
0.296	2.094	0.006	0.000	0.311	0.008	0.033
0.300	2.131	0.006	0.000	0.319	0.008	0.025
0.305	2.161	-0.012	0.006	0.311	0.008	0.033
0.309	2.204	0.006	0.000	0.303	0.008	0.033
0.314	2.240	0.000	0.006	0.319	-0.000	0.041
0.318	2.277	0.000	-0.006	0.311	-0.000	0.041
0.323	2.320	0.000	0.006	0.319	0.008	0.025
0.328	2.344	0.012	0.000	0.311	0.008	0.025
0.332	2.387	0.000	-0.006	0.311	0.016	0.033
0.337	2.411	-0.006	-0.006	0.319	0.008	0.033
0.341	2.454	0.006	0.006	0.311	0.016	0.025
0.346	2.484	0.006	0.006	0.311	-0.000	0.025
0.350	2.521	-0.006	-0.012	0.311	0.008	0.033
0.355	2.551	0.006	0.006	0.303	-0.000	0.025
0.359	2.594	0.006	0.000	0.311	0.008	0.033
0.364	2.624	0.000	0.000	0.311	0.008	0.033
0.369	2.654	-0.006	0.000	0.311	0.025	0.025
0.373	2.691	0.000	-0.006	0.303	0.016	0.041
0.378	2.728	0.000	0.000	0.303	0.008	0.033
0.382	2.758	-0.006	0.000	0.295	0.008	0.033
0.387	2.795	0.006	-0.006	0.295	0.016	0.041
0.391	2.825	-0.006	-0.006	0.303	0.016	0.025
0.396	2.855	0.006	0.000	0.311	0.016	0.025
0.400	2.892	0.000	0.000	0.303	-0.000	0.033
0.405	2.928	0.000	0.000	0.303	0.008	0.041
0.409	2.959	0.006	0.006	0.311	-0.000	0.041
0.414	2.989	0.006	-0.006	0.303	0.016	0.016
0.419	3.032	-0.006	-0.006	0.303	0.008	0.033
0.423	3.056	0.000	0.006	0.287	0.008	0.041
0.428	3.093	0.000	0.000	0.287	0.016	0.033
0.432	3.129	-0.006	-0.006	0.295	-0.000	0.033
0.437	3.160	0.006	0.006	0.287	-0.000	0.025
0.441	3.190	-0.006	0.000	0.303	0.016	0.041
0.446	3.227	-0.006	0.000	0.287	0.008	0.033
0.450	3.263	-0.006	-0.006	0.303	0.016	0.041
0.455	3.288	0.000	0.000	0.303	0.008	0.025
0.460	3.324	-0.006	0.000	0.303	0.016	0.033
0.464	3.355	-0.006	0.000	0.295	0.008	0.025
0.469	3.391	-0.006	0.006	0.311	0.008	0.033
0.473	3.422	-0.006	-0.006	0.303	-0.000	0.033
0.478	3.464	0.006	0.000	0.303	0.016	0.033
0.482	3.501	0.000	0.012	0.303	0.008	0.041
0.487	3.531	0.006	0.000	0.303	0.008	0.041
0.491	3.556	0.000	0.000	0.295	0.008	0.025
0.496	3.592	0.000	0.000	0.303	-0.000	0.033
0.500	3.629	0.000	0.000	0.319	0.008	0.033
0.505	3.671	0.000	0.006	0.311	0.008	0.033
0.510	3.702	0.000	0.006	0.303	0.008	0.025
0.514	3.726	-0.006	0.000	0.303	-0.000	0.025
0.519	3.769	0.006	-0.006	0.303	0.008	0.033
0.523	3.793	0.000	0.000	0.311	0.008	0.041
0.528	3.830	-0.006	0.006	0.303	0.008	0.033
0.532	3.872	0.000	0.000	0.303	-0.000	0.025
0.537	3.897	0.000	-0.006	0.303	0.008	0.025
0.541	3.927	-0.006	0.006	0.295	0.008	0.033
0.546	3.963	0.000	-0.006	0.303	-0.008	0.025
0.551	3.994	0.000	0.000	0.303	0.016	0.033
0.555	4.024	-0.012	-0.012	0.303	0.008	0.033
0.560	4.067	-0.006	0.000	0.295	-0.000	0.025
0.564	4.097	-0.006	0.000	0.295	0.016	0.041
0.569	4.134	0.000	0.006	0.303	0.025	0.033
0.573	4.158	0.000	0.000	0.295	0.008	0.025
0.578	4.201	0.000	0.006	0.303	-0.000	0.025
0.582	4.244	0.006	0.000	0.287	0.008	0.033
0.587	4.268	0.000	0.000	0.303	0.016	0.033
0.591	4.298	0.000	0.006	0.295	-0.000	0.025
0.596	4.335	0.006	-0.006	0.303	0.008	0.033
0.601	4.359	0.000	-0.006	0.303	0.008	0.033
0.605	4.402	0.000	0.000	0.311	0.008	0.033
0.610	4.438	0.000	0.000	0.303	0.016	0.033
0.614	4.463	0.006	0.000	0.311	0.016	0.041
0.619	4.505	0.000	0.000	0.295	0.008	0.033
0.623	4.536	0.006	0.000	0.311	0.008	0.025
0.628	4.572	0.006	0.006	0.295	-0.000	0.033
0.632	4.603	0.000	0.000	0.311	0.016	0.033
0.637	4.645	0.000	0.000	0.303	0.008	0.033
0.642	4.670	0.000	-0.006	0.303	0.025	0.041
0.646	4.706	0.000	0.006	0.303	0.016	0.041
0.651	4.743	0.006	-0.006	0.311	0.008	0.025
0.655	4.779	0.000	0.000	0.311	-0.000	0.041
0.660	4.810	0.006	0.006	0.311	0.008	0.033
0.664	4.840	-0.006	0.000	0.303	0.016	0.049
0.669	4.877	0.000	-0.012	0.311	0.008	0.033
0.673	4.919	-0.006	-0.006	0.303	0.008	0.033
0.678	4.944	-0.006	0.000	0.319	0.016	0.033
0.682	4.986	0.000	-0.006	0.303	0.008	0.025
0.687	5.023	0.000	-0.006	0.311	0.025	0.033
0.692	5.053	0.000	0.000	0.319	0.008	0.025
0.696	5.090	0.000	0.000	0.319	0.016	0.033
0.701	5.114	0.000	0.006	0.319	0.008	0.033
0.705	5.151	0.000	0.006	0.311	0.016	0.033
0.710	5.193	-0.006	0.000	0.311	0.016	0.041
0.714	5.218	0.012	0.000	0.319	-0.000	0.025
0.719	5.260	0.000	0.006	0.303	0.008	0.041
0.723	5.297	0.000	0.006	0.311	0.016	0.041
0.728	5.333	0.000	0.000	0.311	0.008	0.025
0.733	5.364	-0.012	0.006	0.319	0.008	0.041
0.737	5.406	0.006	-0.006	0.319	-0.000	0.025
0.742	5.437	0.006	0.006	0.311	0.008	0.041
0.746	5.479	0.000	-0.006	0.328	-0.000	0.033
0.751	5.510	0.000	-0.006	0.328	0.016	0.041
0.755	5.546	0.006	0.000	0.319	0.008	0.041
0.760	5.583	0.000	0.000	0.311	0.016	0.025
0.764	5.619	0.000	-0.006	0.319	-0.000	0.033
0.769	5.650	0.006	0.006	0.319	0.016	0.033
0.773	5.699	0.000	-0.006	0.336	0.008	0.033
0.778	5.723	0.000	0.000	0.319	0.008	0.033
0.783	5.760	0.000	0.000	0.319	0.008	0.033
0.787	5.796	-0.006	0.000	0.319	0.008	0.025
0.792	5.839	0.006	0.006	0.328	0.016	0.041
0.796	5.869	0.006	0.000	0.328	0.008	0.041
0.801	5.912	-0.006	0.000	0.336	0.016	0.025
0.805	5.948	0.006	0.000	0.328	0.008	0.033
0.810	5.979	0.006	0.000	0.336	0.016	0.033
0.814	6.015	0.000	0.000	0.344	0.025	0.033
0.819	6.058	0.000	0.000	0.336	-0.000	0.033
0.824	6.094	-0.006	0.000	0.336	0.008	0.025
0.828	6.131	-0.006	0.006	0.328	0.016	0.041
0.833	6.161	0.006	0.000	0.336	-0.000	0.033
0.837	6.204	-0.006	0.000	0.344	0.008	0.033
0.842	6.247	0.006	0.000	0.344	-0.008	0.025
0.846	6.283	0.000	0.000	0.336	0.016	0.033
0.851	6.320	-0.006	0.000	0.336	0.008	0.025
0.855	6.356	-0.006	0.006	0.344	0.008	0.033
0.860	6.393	0.000	-0.006	0.336	-0.000	0.041
0.864	6.429	0.000	0.006	0.344	0.016	0.041
0.869	6.478	0.006	0.000	0.344	0.016	0.025
0.874	6.514	-0.006	0.000	0.344	0.016	0.033
0.878	6.539	0.000	0.000	0.344	-0.000	0.033
0.883	6.575	0.000	0.000	0.336	0.008	0.025
0.887	6.624	0.000	0.000	0.344	-0.000	0.025
0.892	6.655	0.000	-0.006	0.344	0.008	0.025
0.896	6.697	0.000	0.000	0.344	0.016	0.041
0.901	6.734	0.006	0.006	0.352	0.016	0.033
0.905	6.776	0.012	0.006	0.344	0.016	0.033
0.910	6.819	0.000	0.006	0.344	-0.000	0.025
0.915	6.855	0.000	-0.006	0.344	-0.000	0.025
0.919	6.886	-0.006	0.006	0.352	0.008	0.041
0.924	6.935	0.000	0.000	0.344	0.008	0.033
0.928	6.977	0.000	0.000	0.352	0.008	0.033
0.933	7.002	0.000	0.006	0.344	0.016	0.033
0.937	7.044	0.006	0.000	0.344	0.016	0.033
0.942	7.093	0.000	0.000	0.336	-0.000	0.033
0.946	7.123	0.006	0.006	0.344	-0.000	0.025
0.951	7.166	-0.006	0.000	0.344	0.016	0.041
0.955	7.209	0.006	0.006	0.352	0.016	0.033
0.960	7.245	0.000	0.000	0.352	0.008	0.025
0.965	7.288	0.006	0.000	0.352	0.008	0.033
0.969	7.318	0.000	0.000	0.344	0.008	0.033
0.974	7.361	0.006	0.000	0.344	-0.000	0.033
0.978	7.397	-0.006	0.000	0.352	0.008	0.041
0.983	7.428	0.000	0.000	0.352	0.008	0.033
0.987	7.476	0.006	0.000	0.336	0.025	0.033
0.992	7.507	0.000	-0.006	0.336	0.008	0.033
0.996	7.549	0.000	0.000	0.344	0.016	0.033
1.001	7.586	0.000	0.006	0.336	-0.000	0.033
1.006	7.623	0.000	0.000	0.344	0.008	0.033
1.010	7.665	0.000	0.000	0.336	0.008	0.025
1.015	7.702	-0.006	0.000	0.352	0.016	0.041
1.019	7.744	0.000	0.000	0.336	0.008	0.033
1.024	7.775	-0.006	0.000	0.344	0.008	0.033
1.028	7.817	0.006	0.000	0.336	0.016	0.033
1.033	7.860	0.000	0.000	0.344	-0.000	0.016
1.037	7.903	-0.006	0.000	0.344	0.008	0.041
1.042	7.927	0.000	0.000	0.352	0.016	0.041
1.046	7.976	0.000	0.000	0.344	0.008	0.033
1.051	8.006	0.000	0.000	0.352	0.008	0.033
1.056	8.049	0.006	-0.006	0.352	0.016	0.033
1.060	8.091	0.006	-0.006	0.344	0.008	0.041
1.065	8.134	0.006	0.006	0.344	0.008	0.033
1.069	8.170	-0.006	0.006	0.352	0.016	0.033
1.074	8.213	0.000	0.006	0.344	-0.000	0.025
1.078	8.244	-0.006	0.000	0.360	0.025	0.016
1.083	8.292	0.006	0.000	0.352	0.008	0.025
1.087	8.323	0.000	-0.012	0.352	0.008	0.025
1.092	8.377	0.000	0.000	0.344	0.008	0.025
1.097	8.402	0.000	0.000	0.352	0.008	0.041
1.101	8.444	0.006	-0.006	0.360	-0.000	0.033
1.106	8.499	0.000	0.006	0.352	0.008	0.041
1.110	8.524	0.000	0.000	0.352	-0.000	0.041
1.115	8.566	0.000	0.000	0.360	0.008	0.025
1.119	8.603	0.000	0.006	0.360	0.025	0.041
1.124	8.639	0.006	0.000	0.352	0.008	0.025
1.128	8.682	0.012	0.006	0.344	0.008	0.033
1.133	8.725	0.000	0.000	0.369	0.016	0.033
1.137	8.767	0.000	0.000	0.360	0.016	0.025
1.142	8.804	0.000	0.006	0.352	0.016	0.041
1.147	8.852	0.000	0.000	0.360	0.008	0.033
1.151	8.883	0.000	0.000	0.360	0.016	0.033
1.156	8.925	-0.006	-0.006	0.352	-0.000	0.033
1.160	8.962	0.006	0.000	0.360	0.008	0.033
1.165	9.011	0.006	0.006	0.369	0.008	0.041
1.169	9.053	0.006	0.006	0.360	0.016	0.033
1.174	9.084	-0.006	0.006	0.377	0.016	0.041
1.178	9.132	0.000	0.006	0.360	0.008	0.033
1.183	9.169	-0.006	0.000	0.369	0.008	0.041
1.188	9.212	0.006	0.000	0.377	-0.000	0.033
1.192	9.254	0.006	0.000	0.360	0.008	0.025
1.197	9.297	0.000	0.000	0.377	0.016	0.016
1.201	9.333	-0.006	0.000	0.352	0.008	0.033
1.206	9.376	0.000	0.000	0.377	-0.000	0.025
1.210	9.419	0.000	0.000	0.369	0.008	0.033
1.215	9.461	0.000	0.006	0.377	0.008	0.041
1.219	9.498	0.000	-0.006	0.360	0.016	0.033
1.224	9.540	0.000	0.000	0.377	0.008	0.041
1.228	9.583	0.000	-0.006	0.377	0.016	0.025
1.233	9.626	0.000	-0.006	0.377	0.016	0.025
1.238	9.668	0.000	-0.006	0.377	0.016	0.033
1.242	9.711	-0.006	-0.006	0.369	0.008	0.041
1.247	9.747	-0.006	0.000	0.377	0.016	0.033
1.251	9.796	0.006	0.000	0.377	0.025	0.033
1.256	9.827	0.006	-0.006	0.369	0.016	0.025
1.260	9.881	0.006	0.006	0.377	0.008	0.025
1.265	9.918	0.006	0.000	0.369	0.008	0.033
1.269	9.954	0.000	-0.006	0.369	0.025	0.041
1.274	10.003	0.006	0.000	0.377	0.008	0.025
1.279	10.052	0.006	0.006	0.377	0.016	0.033
1.283	10.082	0.006	0.000	0.377	0.008	0.033
1.288	10.119	0.000	-0.006	0.360	0.008	0.041
1.292	10.161	0.006	0.000	0.360	0.008	0.041
1.297	10.210	-0.006	0.006	0.369	0.008	0.041
1.301	10.253	-0.006	0.000	0.369	0.016	0.033
1.306	10.289	-0.006	0.000	0.360	0.008	0.033
1.310	10.332	0.000	0.000	0.360	0.016	0.033
1.315	10.368	-0.006	0.000	0.369	0.016	0.033
1.319	10.411	-0.006	0.000	0.352	0.016	0.041
1.324	10.454	-0.006	0.006	0.360	-0.000	0.033
1.329	10.496	0.000	0.000	0.360	0.016	0.025
1.333	10.539	0.000	0.000	0.360	0.016	0.033
1.338	10.575	0.000	0.000	0.369	-0.000	0.041
1.342	10.618	0.006	0.000	0.352	0.008	0.033
1.347	10.655	0.006	0.000	0.352	0.016	0.025
1.351	10.691	-0.006	0.000	0.344	0.008	0.033
1.356	10.740	-0.006	0.006	0.336	-0.000	0.041
1.360	10.776	0.000	0.006	0.352	-0.000	0.033
1.365	10.807	0.006	0.000	0.344	-0.000	0.033
1.370	10.849	0.006	0.006	0.336	0.008	0.041
1.374	10.886	-0.006	0.000	0.360	0.008	0.033
1.379	10.922	0.006	0.000	0.344	-0.000	0.025
1.383	10.965	0.000	0.006	0.336	0.016	0.025
1.388	10.995	0.012	0.000	0.344	0.016	0.041
1.392	11.032	0.006	-0.012	0.336	0.016	0.033
1.397	11.075	0.000	0.000	0.336	0.008	0.041
1.401	11.111	0.006	0.000	0.344	0.016	0.041
1.406	11.148	0.006	0.000	0.336	0.025	0.041
1.410	11.184	0.000	0.000	0.328	0.008	0.041
1.415	11.215	0.006	0.006	0.328	0.008	0.025
1.420	11.257	0.006	0.000	0.336	-0.000	0.025
1.424	11.294	0.012	0.000	0.328	0.008	0.033
1.429	11.336	0.000	-0.006	0.336	-0.000	0.033
1.433	11.367	-0.006	0.006	0.328	0.008	0.033
1.438	11.403	-0.006	0.000	0.328	0.008	0.025
1.442	11.440	0.006	0.000	0.319	0.008	0.033
1.447	11.476	0.000	0.000	0.344	0.008	0.033
1.451	11.519	0.000	0.006	0.336	-0.000	0.033
1.456	11.543	0.006	0.006	0.328	0.016	0.033
1.461	11.592	0.000	0.000	0.336	0.008	0.033
1.465	11.629	0.006	0.006	0.319	-0.000	0.025
1.470	11.659	-0.012	0.000	0.328	0.016	0.041
1.474	11.696	0.000	-0.006	0.328	0.016	0.041
1.479	11.738	0.000	0.006	0.319	0.016	0.033
1.483	11.775	0.006	0.000	0.319	-0.000	0.033
1.488	11.805	0.000	0.006	0.336	0.008	0.025
1.492	11.836	0.000	-0.012	0.336	0.008	0.033
1.497	11.866	0.000	-0.006	0.319	0.008	0.033
1.501	11.915	0.006	-0.006	0.328	0.008	0.041
1.506	11.951	0.000	0.000	0.319	0.016	0.033
1.511	11.976	0.000	-0.006	0.319	0.016	0.033
1.515	12.018	0.000	0.000	0.328	0.016	0.033
1.520	12.055	0.006	0.000	0.328	0.008	0.033
1.524	12.091	0.012	0.006	0.328	0.008	0.033
1.529	12.128	-0.006	0.012	0.311	0.008	0.041
1.533	12.158	-0.006	-0.012	0.336	0.008	0.033
1.538	12.201	0.000	0.006	0.319	0.008	0.041
1.542	12.237	0.000	0.006	0.319	0.008	0.033
1.547	12.274	0.000	0.000	0.311	0.008	0.041
1.552	12.298	-0.006	0.006	0.328	-0.000	0.041
1.556	12.347	0.006	0.000	0.319	0.008	0.033
1.561	12.378	0.000	0.006	0.319	0.008	0.025
1.565	12.420	0.000	0.000	0.319	0.008	0.041
1.570	12.451	0.000	0.000	0.319	0.016	0.025
1.574	12.481	0.006	0.000	0.311	0.008	0.033
1.579	12.524	0.006	-0.006	0.311	0.016	0.033
1.583	12.548	0.006	-0.006	0.303	0.025	0.025
1.588	12.578	0.000	0.000	0.303	0.016	0.025
1.592	12.621	0.006	0.000	0.295	-0.000	0.033
1.597	12.651	0.000	0.000	0.311	0.016	0.041
1.602	12.688	-0.006	0.006	0.287	0.016	0.025
1.606	12.718	-0.006	0.012	0.287	0.008	0.041
1.611	12.749	0.006	-0.006	0.295	0.008	0.033
1.615	12.792	0.000	0.000	0.295	0.008	0.033
1.620	12.816	-0.006	0.000	0.295	-0.000	0.041
1.624	12.834	0.000	0.006	0.303	0.016	0.033
1.629	12.877	0.000	0.000	0.278	0.008	0.041
1.633	12.913	-0.006	0.000	0.295	0.016	0.033
1.638	12.944	0.006	0.006	0.295	0.008	0.041
1.643	12.968	0.000	-0.012	0.287	0.016	0.033
1.647	13.017	0.006	0.006	0.287	0.008	0.025
1.652	13.035	0.000	0.000	0.295	0.008	0.033
1.656	13.065	-0.006	0.000	0.287	-0.000	0.033
1.661	13.108	0.006	-0.006	0.303	0.025	0.041
1.665	13.132	-0.012	0.000	0.287	0.008	0.049
1.670	13.163	0.000	0.000	0.303	0.008	0.033
1.674	13.212	0.000	0.000	0.295	0.008	0.033
1.679	13.236	-0.006	0.000	0.287	0.016	0.033
1.683	13.266	0.000	0.000	0.303	0.008	0.025
1.688	13.297	0.000	0.000	0.278	0.016	0.041
1.693	13.333	0.000	0.006	0.303	0.016	0.033
1.697	13.358	-0.006	0.000	0.303	-0.000	0.033
1.702	13.394	-0.012	0.000	0.303	0.016	0.033
1.706	13.425	0.000	-0.006	0.295	0.016	0.033
1.711	13.449	0.000	-0.006	0.287	0.016	0.041
1.715	13.486	-0.006	0.000	0.295	0.016	0.041
1.720	13.522	0.000	0.000	0.295	0.008	0.041
1.724	13.565	0.000	0.000	0.295	0.008	0.033
1.729	13.595	0.006	0.000	0.295	0.016	0.041
1.734	13.620	0.006	0.000	0.303	0.008	0.025
1.738	13.662	0.000	0.000	0.295	0.008	0.041
1.743	13.680	-0.006	0.000	0.295	0.008	0.041
1.747	13.717	0.000	0.000	0.303	0.008	0.041
1.752	13.760	0.000	0.000	0.295	0.016	0.033
1.756	13.784	0.000	0.000	0.287	-0.008	0.033
1.761	13.814	0.000	0.000	0.295	0.016	0.016
1.765	13.851	0.000	0.000	0.303	0.008	0.041
1.770	13.893	0.000	0.000	0.295	0.025	0.033
1.774	13.924	0.000	0.000	0.303	0.008	0.033
1.779	13.960	-0.006	0.000	0.311	0.008	0.033
1.784	13.979	0.006	0.006	0.295	0.008	0.033
1.788	14.015	0.000	0.006	0.295	0.025	0.033
1.793	14.052	0.006	-0.006	0.287	0.016	0.033
1.797	14.088	-0.006	0.000	0.295	0.016	0.041
1.802	14.119	0.006	0.000	0.287	0.008	0.033
1.806	14.143	0.000	0.000	0.287	0.016	0.041
1.811	14.174	0.006	-0.006	0.287	0.025	0.025
1.815	14.210	0.000	0.000	0.278	0.008	0.025
1.820	14.234	0.006	0.000	0.278	0.008	0.033
1.825	14.265	0.006	0.000	0.278	0.016	0.033
1.829	14.295	0.000	-0.006	0.270	0.008	0.033
1.834	14.326	-0.006	-0.006	0.287	0.016	0.033
1.838	14.362	0.000	0.006	0.287	0.016	0.033
1.843	14.381	0.006	0.000	0.278	0.016	0.041
1.847	14.417	-0.006	0.000	0.270	0.008	0.033
1.852	14.448	-0.006	0.000	0.287	0.008	0.041
1.856	14.478	0.000	0.000	0.278	0.025	0.041
1.861	14.502	0.006	-0.006	0.262	0.016	0.033
1.865	14.539	-0.006	0.000	0.270	0.008	0.033
1.870	14.563	-0.006	0.000	0.270	0.008	0.033
1.875	14.600	-0.006	-0.006	0.254	-0.000	0.033
1.879	14.630	0.000	0.000	0.254	0.016	0.025
1.884	14.655	0.000	0.000	0.262	0.008	0.025
1.888	14.673	0.000	0.000	0.254	-0.000	0.033
1.893	14.697	0.006	-0.006	0.262	0.008	0.033
1.897	14.728	0.000	0.006	0.254	0.025	0.033
1.902	14.758	0.006	0.000	0.246	0.008	0.025
1.906	14.788	0.000	-0.006	0.246	0.016	0.033
1.911	14.813	0.000	0.006	0.238	0.008	0.033
1.916	14.843	0.000	0.006	0.246	0.008	0.025
1.920	14.862	-0.006	0.006	0.246	0.008	0.033
1.925	14.892	0.000	0.012	0.229	0.008	0.033
1.929	14.916	0.006	0.000	0.238	0.008	0.025
1.934	14.947	0.000	0.000	0.238	0.016	0.033
1.938	14.977	0.006	0.006	0.238	0.016	0.025
1.943	14.995	0.006	-0.006	0.229	0.008	0.033
1.947	15.026	-0.006	0.000	0.238	0.008	0.033
1.952	15.050	0.006	0.000	0.238	0.016	0.033
1.956	15.075	0.000	0.000	0.229	0.008	0.033
1.961	15.099	0.000	-0.006	0.221	0.016	0.041
1.966	15.123	0.000	0.006	0.221	0.016	0.041
1.970	15.148	0.006	-0.006	0.229	0.008	0.033
1.975	15.172	0.000	0.006	0.221	0.016	0.033
1.979	15.190	-0.006	-0.006	0.221	0.008	0.025
1.984	15.221	0.000	0.006	0.229	0.016	0.033
1.988	15.239	0.000	-0.012	0.229	0.008	0.041
1.993	15.276	0.006	0.000	0.229	-0.000	0.033
1.997	15.294	0.000	0.000	0.213	0.008	0.033
2.002	15.312	0.000	0.006	0.221	0.008	0.041
2.007	15.342	-0.006	0.000	0.221	0.016	0.041
2.011	15.361	0.000	-0.012	0.221	0.016	0.033
2.016	15.391	-0.006	-0.006	0.221	0.016	0.025
2.020	15.422	0.012	0.006	0.213	0.008	0.041
2.025	15.440	0.000	0.000	0.221	0.025	0.025
2.029	15.470	0.000	0.000	0.229	0.016	0.041
2.034	15.489	0.006	0.000	0.229	0.008	0.041
2.038	15.513	0.000	0.012	0.238	0.008	0.041
2.043	15.531	0.000	0.000	0.229	0.016	0.041
2.047	15.562	-0.012	0.006	0.221	0.016	0.025
2.052	15.574	0.006	0.000	0.229	0.008	0.033
2.057	15.610	0.000	0.000	0.229	0.016	0.033
2.061	15.635	0.006	0.006	0.221	-0.000	0.033
2.066	15.653	0.000	0.006	0.229	-0.000	0.016
2.070	15.677	0.000	0.000	0.229	0.008	0.041
2.075	15.708	0.000	0.006	0.221	0.008	0.033
2.079	15.738	0.000	0.000	0.229	0.016	0.025
2.084	15.757	-0.006	-0.006	0.229	-0.000	0.033
2.088	15.781	0.000	-0.006	0.221	-0.000	0.041
2.093	15.811	0.000	0.000	0.229	-0.000	0.025
2.098	15.830	0.006	-0.006	0.221	0.016	0.016
2.102	15.860	0.006	0.000	0.221	-0.000	0.033
2.107	15.878	0.000	0.000	0.229	0.016	0.025
